time (s)    counts/second
0           1000
30          856.7
60          734
90          628.8
120         538.8
150         461.6
180         395.4
210         338.8
240         290.3
270         248.7
300         213.0
330         182.5
360         156.4
390         134.0
420         114.8
450         98.3
480         84.2
510         72.2
540         61.8
570         53.0
600         45.4
